Exported from: CypherGraph V1.28.0
Acquired by  : CypherGraph V1.28.0 | C60-0504-0552 V1.23.10 : 5/10/2021
Graph title  : Title
Points       : 300
Pen legend   : 12:54:51 PM
Resonance    : N/A
Capacitance  : 3.21090758e-010 F at 1.09678503e+003 Hz
Frequency (Hz), Impedance (Ohms), Admittance (S), Phase angle (Degrees), Resistance (Ohms), Reactance (S), Conductance (S), Susceptance (S)
9.99999875e+005, 8.15619189e+003, 1.22606237e-004, -8.40416336e+001, 8.46659803e+002, -8.11212878e+003, 1.27272352e-005, 1.21943868e-004
9.77161875e+005, 8.34227539e+003, 1.19871372e-004, -8.39213867e+001, 8.83387807e+002, -8.29537128e+003, 1.26935283e-005, 1.19197400e-004
9.54845500e+005, 8.53260352e+003, 1.17197523e-004, -8.39766693e+001, 8.95355279e+002, -8.48549714e+003, 1.22979371e-005, 1.16550505e-004
9.33038625e+005, 8.75544531e+003, 1.14214636e-004, -8.40316925e+001, 9.10376660e+002, -8.70798696e+003, 1.18758481e-005, 1.13595543e-004
9.11729875e+005, 8.92638672e+003, 1.12027412e-004, -8.40864563e+001, 9.19664771e+002, -8.87888487e+003, 1.15419225e-005, 1.11431257e-004
8.90907750e+005, 9.10066602e+003, 1.09882068e-004, -8.40970535e+001, 9.35946073e+002, -9.05241000e+003, 1.13006773e-005, 1.09299421e-004
8.70561188e+005, 9.30829785e+003, 1.07431027e-004, -8.41513290e+001, 9.48528401e+002, -9.25984356e+003, 1.09473700e-005, 1.06871796e-004
8.50679250e+005, 9.55139648e+003, 1.04696732e-004, -8.42493286e+001, 9.57047259e+002, -9.50332759e+003, 1.04905833e-005, 1.04169830e-004
8.31251375e+005, 9.76931152e+003, 1.02361359e-004, -8.43031464e+001, 9.69751751e+002, -9.72106111e+003, 1.01609112e-005, 1.01855798e-004
8.12267250e+005, 9.99219727e+003, 1.00078088e-004, -8.43127975e+001, 9.90201692e+002, -9.94301296e+003, 9.91748759e-006, 9.95854768e-005
7.93716688e+005, 1.02201699e+004, 9.78457313e-005, -8.43661804e+001, 1.00331744e+003, -1.01708027e+004, 9.60554760e-006, 9.73730999e-005
7.75589750e+005, 1.04533398e+004, 9.56632057e-005, -8.44193420e+001, 1.01655514e+003, -1.04037940e+004, 9.30295241e-006, 9.52097894e-005
7.57876750e+005, 1.06918301e+004, 9.35293577e-005, -8.44283524e+001, 1.03807414e+003, -1.06413172e+004, 9.08080346e-006, 9.30874845e-005
7.40568375e+005, 1.09710703e+004, 9.11488097e-005, -8.45250473e+001, 1.04675638e+003, -1.09210203e+004, 8.69656245e-006, 9.07329891e-005
7.23655313e+005, 1.12575898e+004, 8.88289602e-005, -8.45336533e+001, 1.07241017e+003, -1.12063940e+004, 8.46194268e-006, 8.84249947e-005
7.07128375e+005, 1.15144297e+004, 8.68475493e-005, -8.45860138e+001, 1.08640178e+003, -1.14630634e+004, 8.19418200e-006, 8.64601191e-005
6.90978938e+005, 1.17771299e+004, 8.49103313e-005, -8.46381683e+001, 1.10051491e+003, -1.17255983e+004, 7.93445319e-006, 8.45388006e-005
6.75198375e+005, 1.20458301e+004, 8.30162798e-005, -8.47340927e+001, 1.10554322e+003, -1.19949905e+004, 7.61907518e-006, 8.26659083e-005
6.59778188e+005, 1.23604199e+004, 8.09034002e-005, -8.47419434e+001, 1.13272919e+003, -1.23084079e+004, 7.41412050e-006, 8.05629629e-005
6.44710188e+005, 1.26424199e+004, 7.90987806e-005, -8.47935486e+001, 1.14723279e+003, -1.25902597e+004, 7.17779628e-006, 7.87724339e-005
6.29986188e+005, 1.29308604e+004, 7.73343747e-005, -8.48010406e+001, 1.17172334e+003, -1.28776634e+004, 7.00761509e-006, 7.70162246e-005
6.15598563e+005, 1.32685703e+004, 7.53660701e-005, -8.48083572e+001, 1.20063734e+003, -1.32141374e+004, 6.81967357e-006, 7.50568889e-005
6.01539500e+005, 1.36150996e+004, 7.34478651e-005, -8.48155212e+001, 1.23029846e+003, -1.35593991e+004, 6.63695438e-006, 7.31473836e-005
5.87801563e+005, 1.39706699e+004, 7.15785288e-005, -8.48225174e+001, 1.26072985e+003, -1.39136688e+004, 6.45933148e-006, 7.12864842e-005
5.74377313e+005, 1.43355400e+004, 6.97567024e-005, -8.48293533e+001, 1.29195276e+003, -1.42772044e+004, 6.28663896e-006, 6.94728414e-005
5.61259688e+005, 1.46625996e+004, 6.82007302e-005, -8.48360291e+001, 1.31972670e+003, -1.46030870e+004, 6.13849707e-006, 6.79239167e-005
5.48441563e+005, 1.49971299e+004, 6.66794252e-005, -8.48425598e+001, 1.34813405e+003, -1.49364132e+004, 5.99400046e-006, 6.64094700e-005
5.35916250e+005, 1.53392900e+004, 6.51920654e-005, -8.48489380e+001, 1.37719112e+003, -1.52773415e+004, 5.85306968e-006, 6.49287838e-005
5.23677000e+005, 1.56892500e+004, 6.37379097e-005, -8.48551712e+001, 1.40691125e+003, -1.56260413e+004, 5.71560668e-006, 6.34811230e-005
5.11717250e+005, 1.60990000e+004, 6.21156594e-005, -8.48612595e+001, 1.44195120e+003, -1.60342938e+004, 5.56355983e-006, 6.18659999e-005
5.00030563e+005, 1.65194492e+004, 6.05347059e-005, -8.48672104e+001, 1.47790102e+003, -1.64532067e+004, 5.41569529e-006, 6.02919635e-005
4.88610875e+005, 1.68963398e+004, 5.91844156e-005, -8.49169769e+001, 1.49700156e+003, -1.68298926e+004, 5.24368967e-006, 5.89516647e-005
4.77451969e+005, 1.72818301e+004, 5.78642421e-005, -8.48787231e+001, 1.54264825e+003, -1.72128408e+004, 5.16520365e-006, 5.76332472e-005
4.66547844e+005, 1.76761094e+004, 5.65735354e-005, -8.48842697e+001, 1.57613894e+003, -1.76056988e+004, 5.04453497e-006, 5.63481817e-005
4.55892875e+005, 1.80793906e+004, 5.53115988e-005, -8.48896866e+001, 1.61039615e+003, -1.80075259e+004, 4.92680244e-006, 5.50917378e-005
4.45481188e+005, 1.85515605e+004, 5.39038211e-005, -8.49828873e+001, 1.62239474e+003, -1.84804825e+004, 4.71406573e-006, 5.36972952e-005
4.35307250e+005, 1.90360605e+004, 5.25318775e-005, -8.49880829e+001, 1.66304626e+003, -1.89632771e+004, 4.58933938e-006, 5.23310244e-005
4.25365688e+005, 1.94077207e+004, 5.15258858e-005, -8.49492035e+001, 1.70863440e+003, -1.93323612e+004, 4.53628236e-006, 5.13258127e-005
4.15651156e+005, 1.98505098e+004, 5.03765400e-005, -8.49541397e+001, 1.74591351e+003, -1.97735815e+004, 4.43077196e-006, 5.01813117e-005
4.06158438e+005, 2.03033906e+004, 4.92528572e-005, -8.50029221e+001, 1.76852556e+003, -2.02262203e+004, 4.29016704e-006, 4.90656541e-005
3.96882656e+005, 2.08336504e+004, 4.79992695e-005, -8.50515976e+001, 1.79708123e+003, -2.07559988e+004, 4.14034914e-006, 4.78203658e-005
3.87818688e+005, 2.13089609e+004, 4.69286139e-005, -8.50562134e+001, 1.83637058e+003, -2.12296858e+004, 4.04422938e-006, 4.67540267e-005
3.78961563e+005, 2.16550996e+004, 4.61784992e-005, -8.51046829e+001, 1.84794852e+003, -2.15761077e+004, 3.94066482e-006, 4.60100527e-005
3.70306844e+005, 2.22206602e+004, 4.50031634e-005, -8.51530304e+001, 1.87752833e+003, -2.21411975e+004, 3.80252943e-006, 4.48422288e-005
3.61849781e+005, 2.27276191e+004, 4.39993294e-005, -8.52012863e+001, 1.90128970e+003, -2.26479529e+004, 3.68078465e-006, 4.38451002e-005
3.53585906e+005, 2.32461504e+004, 4.30178754e-005, -8.52494431e+001, 1.92519723e+003, -2.31662928e+004, 3.56264987e-006, 4.28700959e-005
3.45510656e+005, 2.37000098e+004, 4.21940754e-005, -8.52535629e+001, 1.96108660e+003, -2.36187341e+004, 3.49140093e-006, 4.20493772e-005
3.37619844e+005, 2.43189707e+004, 4.11201614e-005, -8.52575836e+001, 2.01060257e+003, -2.42357136e+004, 3.39966289e-006, 4.09793846e-005
3.29909250e+005, 2.47937695e+004, 4.03327134e-005, -8.53054504e+001, 2.02921384e+003, -2.47105908e+004, 3.30097849e-006, 4.01974043e-005
3.22374750e+005, 2.53594395e+004, 3.94330483e-005, -8.53092880e+001, 2.07381751e+003, -2.52745020e+004, 3.22471426e-006, 3.93009734e-005
3.15012406e+005, 2.59380195e+004, 3.85534446e-005, -8.53130417e+001, 2.11943841e+003, -2.58512831e+004, 3.15026563e-006, 3.84245224e-005
3.07818188e+005, 2.65297891e+004, 3.76934772e-005, -8.53606567e+001, 2.14581856e+003, -2.64428662e+004, 3.04877520e-006, 3.75699773e-005
3.00788156e+005, 2.70477598e+004, 3.69716386e-005, -8.53642273e+001, 2.18603373e+003, -2.69592760e+004, 2.98809401e-006, 3.68506901e-005
2.93918781e+005, 2.76648496e+004, 3.61469523e-005, -8.53677368e+001, 2.23421869e+003, -2.75744841e+004, 2.91923497e-006, 3.60288805e-005
2.87206281e+005, 2.82960195e+004, 3.53406598e-005, -8.54590530e+001, 2.24023921e+003, -2.82071985e+004, 2.79797417e-006, 3.52297257e-005
2.80646969e+005, 2.88484805e+004, 3.46638708e-005, -8.54623871e+001, 2.28230496e+003, -2.87580582e+004, 2.74238099e-006, 3.45552208e-005
2.74237563e+005, 2.95066504e+004, 3.38906649e-005, -8.55096130e+001, 2.31012974e+003, -2.94160792e+004, 2.65336226e-006, 3.37866369e-005
2.67974563e+005, 3.01798398e+004, 3.31347020e-005, -8.55128021e+001, 2.36116031e+003, -3.00873338e+004, 2.59233792e-006, 3.30331388e-005
2.61854469e+005, 3.07690801e+004, 3.25001592e-005, -8.55159073e+001, 2.40559788e+003, -3.06748983e+004, 2.54093765e-006, 3.24006787e-005
2.55874281e+005, 3.14710703e+004, 3.17752142e-005, -8.55189667e+001, 2.45880580e+003, -3.13748712e+004, 2.48256828e-006, 3.16780854e-005
2.50030578e+005, 3.20855195e+004, 3.11667074e-005, -8.55219421e+001, 2.50515099e+003, -3.19875723e+004, 2.43341261e-006, 3.10715651e-005
2.44320391e+005, 3.28175391e+004, 3.04715109e-005, -8.55248566e+001, 2.56064089e+003, -3.27174875e+004, 2.37758830e-006, 3.03786117e-005
2.38740563e+005, 3.35662695e+004, 2.97918123e-005, -8.55716476e+001, 2.59173231e+003, -3.34660630e+004, 2.30029739e-006, 2.97028738e-005
2.33288281e+005, 3.42216289e+004, 2.92212858e-005, -8.55304794e+001, 2.66684904e+003, -3.41175585e+004, 2.27717852e-006, 2.91324219e-005
2.27960344e+005, 3.48897695e+004, 2.86616969e-005, -8.55771408e+001, 2.69058788e+003, -3.47858700e+004, 2.21029876e-006, 2.85763442e-005
2.22754188e+005, 3.58009609e+004, 2.79322111e-005, -8.55798035e+001, 2.75919726e+003, -3.56944762e+004, 2.15274893e-006, 2.78491309e-005
2.17666984e+005, 3.63825117e+004, 2.74857329e-005, -8.56702805e+001, 2.74673267e+003, -3.62786799e+004, 2.07506181e-006, 2.74072916e-005
2.12695891e+005, 3.72125703e+004, 2.68726399e-005, -8.55849228e+001, 2.86467564e+003, -3.71021431e+004, 2.06869335e-006, 2.67928961e-005
2.07838297e+005, 3.81844297e+004, 2.61886850e-005, -8.56752930e+001, 2.87943916e+003, -3.80757075e+004, 1.97485534e-006, 2.61141182e-005
2.03091688e+005, 3.88046914e+004, 2.57700800e-005, -8.56777115e+001, 2.92457898e+003, -3.86943266e+004, 1.94220419e-006, 2.56967870e-005
1.98453484e+005, 3.96900195e+004, 2.51952509e-005, -8.56800690e+001, 2.98967474e+003, -3.95772598e+004, 1.89784752e-006, 2.51236710e-005
1.93921156e+005, 4.07265781e+004, 2.45539902e-005, -8.56823807e+001, 3.06611562e+003, -4.06109973e+004, 1.84855631e-006, 2.44843067e-005
1.89492344e+005, 4.16557500e+004, 2.40062896e-005, -8.56406937e+001, 3.16628953e+003, -4.15352395e+004, 1.82473881e-006, 2.39368392e-005
1.85164750e+005, 4.24690391e+004, 2.35465653e-005, -8.56868362e+001, 3.19400423e+003, -4.23487617e+004, 1.77088605e-006, 2.34798786e-005
1.80935984e+005, 4.34379688e+004, 2.30213343e-005, -8.56890030e+001, 3.26523729e+003, -4.33150708e+004, 1.73051644e-006, 2.29562006e-005
1.76803766e+005, 4.45724219e+004, 2.24353974e-005, -8.56911087e+001, 3.34888079e+003, -4.44464373e+004, 1.68564929e-006, 2.23719835e-005
1.72765844e+005, 4.54426484e+004, 2.20057597e-005, -8.56931686e+001, 3.41263476e+003, -4.53143269e+004, 1.65258019e-006, 2.19436195e-005
1.68820266e+005, 4.64794219e+004, 2.15148976e-005, -8.56951828e+001, 3.48886467e+003, -4.63482953e+004, 1.61496342e-006, 2.14542003e-005
1.64964797e+005, 4.75398516e+004, 2.10349836e-005, -8.57410889e+001, 3.53048006e+003, -4.74085773e+004, 1.56213341e-006, 2.09768986e-005
1.61197250e+005, 4.87814219e+004, 2.04996075e-005, -8.56990738e+001, 3.65835526e+003, -4.86440496e+004, 1.53736492e-006, 2.04418790e-005
1.57515891e+005, 4.98943594e+004, 2.00423457e-005, -8.57009430e+001, 3.74019667e+003, -4.97539750e+004, 1.50242063e-006, 1.99859539e-005
1.53918438e+005, 5.08685000e+004, 1.96585313e-005, -8.57027664e+001, 3.81160619e+003, -5.07254961e+004, 1.47302514e-006, 1.96032663e-005
1.50403266e+005, 5.20290703e+004, 1.92200244e-005, -8.56606216e+001, 3.93673051e+003, -5.18799220e+004, 1.45426501e-006, 1.91649276e-005
1.46968359e+005, 5.33878789e+004, 1.87308434e-005, -8.57502670e+001, 3.95624697e+003, -5.32410906e+004, 1.38802747e-006, 1.86793435e-005
1.43611844e+005, 5.47821797e+004, 1.82541112e-005, -8.57519836e+001, 4.05793322e+003, -5.46316794e+004, 1.35215438e-006, 1.82039626e-005
1.40332047e+005, 5.58517500e+004, 1.79045419e-005, -8.56657562e+001, 4.22097912e+003, -5.56920220e+004, 1.35313034e-006, 1.78533375e-005
1.37127156e+005, 5.71260117e+004, 1.75051604e-005, -8.56234436e+001, 4.35934648e+003, -5.69594357e+004, 1.33583734e-006, 1.74541164e-005
1.33995469e+005, 5.84293281e+004, 1.71146928e-005, -8.57568817e+001, 4.32311069e+003, -5.82691780e+004, 1.26629406e-006, 1.70677828e-005
1.30935250e+005, 5.99553008e+004, 1.66790924e-005, -8.56266022e+001, 4.57195698e+003, -5.97807268e+004, 1.27188242e-006, 1.66305273e-005
1.27944945e+005, 6.15211211e+004, 1.62545803e-005, -8.57160187e+001, 4.59562358e+003, -6.13492346e+004, 1.21421604e-006, 1.62091659e-005
1.25022945e+005, 6.29247109e+004, 1.58920078e-005, -8.56735611e+001, 4.74696883e+003, -6.27454025e+004, 1.19887505e-006, 1.58467224e-005
1.22167648e+005, 6.41532617e+004, 1.55876720e-005, -8.56750183e+001, 4.83802233e+003, -6.39705755e+004, 1.17552098e-006, 1.55432837e-005
1.19377555e+005, 6.56169063e+004, 1.52399748e-005, -8.57203827e+001, 4.89659460e+003, -6.54339495e+004, 1.13726755e-006, 1.51974819e-005
1.16651297e+005, 6.73305938e+004, 1.48520894e-005, -8.55899429e+001, 5.17732127e+003, -6.71312461e+004, 1.14203714e-006, 1.48081164e-005
1.13987148e+005, 6.90890313e+004, 1.44740776e-005, -8.55473633e+001, 5.36372501e+003, -6.88805103e+004, 1.12369461e-006, 1.44303927e-005
1.11383852e+005, 7.08933906e+004, 1.41056873e-005, -8.55926285e+001, 5.44796606e+003, -7.06837499e+004, 1.08398406e-006, 1.40639750e-005
1.08840047e+005, 7.25108125e+004, 1.37910467e-005, -8.55060272e+001, 5.68152850e+003, -7.22878839e+004, 1.08058677e-006, 1.37486472e-005
1.06354359e+005, 7.46447031e+004, 1.33967979e-005, -8.55073013e+001, 5.84707304e+003, -7.44153441e+004, 1.04939872e-006, 1.33556339e-005
1.03925469e+005, 7.61020781e+004, 1.31402456e-005, -8.55085373e+001, 5.95959562e+003, -7.58683697e+004, 1.02901987e-006, 1.30998921e-005
1.01552070e+005, 7.75878984e+004, 1.28886079e-005, -8.55097504e+001, 6.07431337e+003, -7.73497557e+004, 1.00904194e-006, 1.28490485e-005
9.92328516e+004, 7.96142188e+004, 1.25605704e-005, -8.54230423e+001, 6.35305935e+003, -7.93603331e+004, 1.00230902e-006, 1.25205154e-005
9.69665625e+004, 8.16934531e+004, 1.22408830e-005, -8.53802490e+001, 6.57979730e+003, -8.14280452e+004, 9.85911669e-007, 1.22011145e-005
9.47520156e+004, 8.32884531e+004, 1.20064662e-005, -8.54692688e+001, 6.57927071e+003, -8.30281857e+004, 9.48436292e-007, 1.19689473e-005
9.25880703e+004, 8.51886563e+004, 1.17386521e-005, -8.54703827e+001, 6.72772398e+003, -8.49225817e+004, 9.27053140e-007, 1.17019881e-005
9.04735313e+004, 8.71322266e+004, 1.14768099e-005, -8.53396072e+001, 7.07945306e+003, -8.68441492e+004, 9.32485489e-007, 1.14388652e-005
8.84072813e+004, 8.94078203e+004, 1.11847039e-005, -8.52967224e+001, 7.33104079e+003, -8.91067572e+004, 9.17095625e-007, 1.11470417e-005
8.63882266e+004, 9.17428438e+004, 1.09000327e-005, -8.53416977e+001, 7.45072736e+003, -9.14397946e+004, 8.85226235e-007, 1.08640273e-005
8.44153203e+004, 9.35340234e+004, 1.06912967e-005, -8.52987595e+001, 7.66605673e+003, -9.32193387e+004, 8.76259614e-007, 1.06553271e-005
8.24874609e+004, 9.53601875e+004, 1.04865566e-005, -8.52118530e+001, 7.95987627e+003, -9.50273946e+004, 8.75330627e-007, 1.04499600e-005
8.06036016e+004, 9.78506563e+004, 1.02196555e-005, -8.52567520e+001, 8.09134580e+003, -9.75155426e+004, 8.45071152e-007, 1.01846558e-005
7.87627734e+004, 1.00406203e+005, 9.95954402e-006, -8.50819092e+001, 8.60797534e+003, -1.00036535e+005, 8.53846741e-007, 9.92287573e-006
7.69639609e+004, 1.02366500e+005, 9.76882085e-006, -8.52146683e+001, 8.53969277e+003, -1.02009676e+005, 8.14941693e-007, 9.73476918e-006
7.52062813e+004, 1.04702000e+005, 9.55091593e-006, -8.51716232e+001, 8.81291017e+003, -1.04330443e+005, 8.03913623e-007, 9.51702254e-006
7.34887109e+004, 1.07090797e+005, 9.33787057e-006, -8.50846024e+001, 9.17604039e+003, -1.06696950e+005, 8.00112428e-007, 9.30352873e-006
7.18103672e+004, 1.09887602e+005, 9.10020772e-006, -8.49536209e+001, 9.66594438e+003, -1.09461658e+005, 8.00473396e-007, 9.06493369e-006
7.01703438e+004, 1.11672602e+005, 8.95474795e-006, -8.49984131e+001, 9.73598974e+003, -1.11247384e+005, 7.80704783e-007, 8.92065081e-006
6.85678125e+004, 1.14220398e+005, 8.75500360e-006, -8.50431671e+001, 9.86923372e+003, -1.13793223e+005, 7.56477634e-007, 8.72226058e-006
6.70018203e+004, 1.17203398e+005, 8.53217580e-006, -8.49560699e+001, 1.03044669e+004, -1.16749538e+005, 7.50144831e-007, 8.49913564e-006
6.54716484e+004, 1.19491703e+005, 8.36878188e-006, -8.49129105e+001, 1.05953122e+004, -1.19021034e+005, 7.42058689e-007, 8.33581784e-006
6.39764063e+004, 1.22217898e+005, 8.18210764e-006, -8.49136734e+001, 1.08354225e+004, -1.21736635e+005, 7.25397789e-007, 8.14988855e-006
6.25153164e+004, 1.25006297e+005, 7.99959702e-006, -8.48265228e+001, 1.12720134e+004, -1.24497052e+005, 7.21336183e-007, 7.96700864e-006
6.10876094e+004, 1.27446898e+005, 7.84640515e-006, -8.48712006e+001, 1.13931079e+004, -1.26936634e+005, 7.01428923e-007, 7.81499016e-006
5.96924414e+004, 1.29935203e+005, 7.69614374e-006, -8.48719101e+001, 1.16139471e+004, -1.29415120e+005, 6.87901388e-007, 7.66533888e-006
5.83292227e+004, 1.33328594e+005, 7.50026661e-006, -8.47407684e+001, 1.22211739e+004, -1.32767303e+005, 6.87489909e-007, 7.46869178e-006
5.69970625e+004, 1.35931703e+005, 7.35663555e-006, -8.47414474e+001, 1.24581762e+004, -1.35359602e+005, 6.74237573e-007, 7.32567337e-006
5.56953555e+004, 1.39033000e+005, 7.19253702e-006, -8.46102829e+001, 1.30593193e+004, -1.38418313e+005, 6.75592398e-007, 7.16073765e-006
5.44233906e+004, 1.42205094e+005, 7.03209691e-006, -8.46988068e+001, 1.31385169e+004, -1.41596850e+005, 6.49704746e-007, 7.00201904e-006
5.31804570e+004, 1.44981500e+005, 6.89743174e-006, -8.45676117e+001, 1.37255540e+004, -1.44330331e+005, 6.52987258e-007, 6.86645267e-006
5.19659531e+004, 1.47812094e+005, 6.76534629e-006, -8.44803391e+001, 1.42176485e+004, -1.47126726e+005, 6.50740497e-007, 6.73397707e-006
5.07791641e+004, 1.51672406e+005, 6.59315709e-006, -8.43930588e+001, 1.48189201e+004, -1.50946740e+005, 6.44174313e-007, 6.56161259e-006
4.96194375e+004, 1.55132797e+005, 6.44609019e-006, -8.43936462e+001, 1.51554293e+004, -1.54390730e+005, 6.29739590e-007, 6.41525578e-006
4.84862344e+004, 1.57652797e+005, 6.34305271e-006, -8.43063431e+001, 1.56406692e+004, -1.56875026e+005, 6.29291652e-007, 6.31175963e-006
4.73788984e+004, 1.61770094e+005, 6.18161229e-006, -8.42190094e+001, 1.62944890e+004, -1.60947361e+005, 6.22650399e-007, 6.15017374e-006
4.62968359e+004, 1.64397906e+005, 6.08280253e-006, -8.42195587e+001, 1.65576105e+004, -1.63561967e+005, 6.12639645e-007, 6.05187238e-006
4.52395078e+004, 1.68148594e+005, 5.94712080e-006, -8.42201004e+001, 1.69337856e+004, -1.67293743e+005, 5.98918293e-007, 5.91688624e-006
4.42063203e+004, 1.72540000e+005, 5.79575751e-006, -8.40887909e+001, 1.77694002e+004, -1.71622551e+005, 5.96888457e-007, 5.76493966e-006
4.31967383e+004, 1.75908703e+005, 5.68476705e-006, -8.39574738e+001, 1.85173096e+004, -1.74931361e+005, 5.98416051e-007, 5.65318270e-006
4.22102227e+004, 1.79343203e+005, 5.57590130e-006, -8.40019073e+001, 1.87405319e+004, -1.78361366e+005, 5.82655792e-007, 5.54537533e-006
4.12462344e+004, 1.84027000e+005, 5.43398523e-006, -8.39145203e+001, 1.95090844e+004, -1.82989979e+005, 5.76068058e-007, 5.40336387e-006
4.03042422e+004, 1.86414500e+005, 5.36438957e-006, -8.38271103e+001, 2.00449550e+004, -1.85333660e+005, 5.76827164e-007, 5.33328660e-006
3.93837695e+004, 1.90667594e+005, 5.24472974e-006, -8.40033569e+001, 1.99190806e+004, -1.89624264e+005, 5.47917936e-007, 5.21603068e-006
3.84843359e+004, 1.95647094e+005, 5.11124383e-006, -8.37840881e+001, 2.11837755e+004, -1.94496871e+005, 5.53422182e-007, 5.08119448e-006
